# E(MeV)   weight (unnormalized Watt spectrum approx)
0.50 0.9374219
1.00 1.0086140
1.50 0.9260472
2.00 0.7919722
2.50 0.6491893
3.00 0.5169126
3.50 0.4028111
4.00 0.3086512
4.50 0.2332930
5.00 0.1743389
5.50 0.1290287
6.00 0.09469945
6.50 0.06899676
7.00 0.04994523
7.50 0.03594531
8.00 0.02573492
8.50 0.01833775
9.00 0.01301044
9.50 0.009194221
10.00 0.006473661
10.50 0.004542709
11.00 0.003177706
11.50 0.002216352
12.00 0.001541602
